DATE,HT_TRENDLINE,ADOSC,HT_DCPHASE,MAMA,T3
2019-02-15,28.7925,859002.0317,219.8011,29.6465,30.7294
2019-02-14,28.5121,13057.8149,211.6113,29.6318,30.6403
2019-02-13,28.2561,2127388.3504,206.6985,29.6183,30.5579
2019-02-12,27.9696,3051080.4962,201.4054,29.6090,30.4756
2019-02-11,27.6266,4843327.5487,195.2167,29.5996,30.3807
2019-02-08,27.2798,2899862.8182,190.8717,29.5956,30.2649
2019-02-07,26.9461,3054538.4774,187.3144,29.5923,30.1103
2019-02-06,26.5782,1559830.0796,184.4941,29.5874,29.9115
2019-02-05,26.2657,-401351.9106,181.2000,29.5834,29.6664
2019-02-04,26.0501,-2934784.6916,175.9070,29.5817,29.3673
2019-02-01,25.9074,-4570896.4284,174.0834,29.5805,29.0077
2019-01-31,25.7437,-3797448.0771,173.2230,29.5779,28.5911
2019-01-30,25.5551,-4191583.0597,172.6039,29.5745,28.1300
2019-01-29,25.3385,-4223561.2262,170.0998,29.5704,27.6405
2019-01-28,25.1325,-1505466.5745,170.8433,29.5659,27.1433
2019-01-25,24.9065,92701.5030,168.8719,29.5655,26.6607
2019-01-24,24.7028,5046896.3382,166.4085,29.5613,26.2135
2019-01-23,24.5439,7138228.4055,162.2185,29.5596,25.8344
2019-01-22,24.4431,6864705.6549,154.9537,29.5555,25.5327
2019-01-18,24.4201,7448233.9082,136.6463,29.5864,25.2970
2019-01-17,24.4176,8596701.3659,118.1588,29.6185,25.0495
2019-01-16,24.4258,9031654.1712,105.4026,29.6528,24.7903
2019-01-15,24.4770,8941030.0727,86.7407,29.6921,24.5169
2019-01-14,24.5122,8559692.2603,69.5263,29.7314,24.2263
2019-01-11,24.5137,7940048.2022,57.4670,29.7712,23.9302
2019-01-10,24.4998,7270899.6988,41.2265,29.8136,23.6414
2019-01-09,24.4508,6718487.7277,33.6407,29.8532,23.3743
2019-01-08,24.4092,5515672.3586,30.6365,29.8969,23.1536
2019-01-07,24.4003,5082150.5313,23.3484,29.9412,22.9906
2019-01-04,24.4024,4228447.6916,12.8212,29.9895,22.9002
2019-01-03,24.3890,2268296.3891,6.9378,30.0445,22.8853
2019-01-02,24.3696,1678049.1862,2.1877,30.1010,22.9408
2018-12-31,24.3514,-2282222.8080,4.8583,30.1712,23.0633
2018-12-28,24.3836,-4718204.5031,1.2248,30.2384,23.2293
2018-12-27,24.4313,-7112820.4701,0.5713,30.3060,23.4464
2018-12-26,24.5518,-11105961.3893,-0.0193,30.3818,23.7019
2018-12-24,24.7020,-13922072.3478,0.9135,30.4649,23.9632
2018-12-21,24.8647,-13638803.9098,1.5351,30.5471,24.2057
2018-12-20,25.0356,-12039302.1712,-1.3801,30.6233,24.4269
2018-12-19,25.1824,-11911984.7460,-6.3673,30.7006,24.6319
2018-12-18,25.3063,-10762373.3658,-13.7708,30.7733,24.8135
2018-12-17,25.4116,-9715686.0328,-23.5162,30.8454,24.9752
2018-12-14,25.5113,-7648975.9152,-38.1219,30.9145,25.1131
2018-12-13,25.6345,-6281510.9541,-40.7801,30.9851,25.2278
2018-12-12,25.7672,-3986922.6613,-26.9430,31.0494,25.3163
2018-12-11,25.9226,-1856826.8357,41.8809,31.1137,25.3918
2018-12-10,26.0965,-561053.6466,56.0704,31.1723,25.4565
2018-12-07,26.2291,-778992.8927,52.4774,31.2317,25.5211
2018-12-06,26.3638,263854.8484,36.0763,31.2914,25.5798
2018-12-04,26.4952,-1364540.7322,25.8733,31.3597,25.6262
2018-12-03,26.6431,1075961.9718,10.3968,31.4172,25.6523
2018-11-30,26.8523,2181551.8370,10.7767,31.4696,25.6930
2018-11-29,27.0915,1490254.2510,9.9691,31.5249,25.7653
2018-11-28,27.3178,2281414.8368,9.6219,31.5784,25.8686
2018-11-27,27.5718,594022.0854,14.0706,31.6341,26.0077
2018-11-26,27.8314,-699733.3161,17.6583,31.6934,26.1745
2018-11-23,28.0219,-254389.6093,14.6971,31.7518,26.3566
2018-11-21,28.1670,104489.1687,13.1625,31.8146,26.5452
2018-11-20,28.2924,709935.6028,11.9075,31.8794,26.7189
2018-11-19,28.3904,1716971.8526,12.9727,31.9460,26.8645
2018-11-16,28.4673,2332836.6832,12.7712,32.0066,26.9779
2018-11-15,28.5273,2061530.2460,11.2712,32.0638,27.0756
2018-11-14,28.5708,864019.7575,8.6617,32.1185,27.1731
2018-11-13,28.6048,2391715.6050,8.0742,32.1616,27.2894
2018-11-12,28.6872,2841789.0030,4.6471,32.2116,27.4521
2018-11-09,28.8037,3821097.1890,0.5768,32.2583,27.6495
2018-11-08,28.9847,3256626.2440,-6.0938,32.3082,27.8859
2018-11-07,29.2207,1213806.1507,-10.6530,32.3591,28.1465
2018-11-06,29.5120,-1934560.7995,-8.5150,32.4134,28.4155
2018-11-05,29.7837,-3517565.9898,-1.5272,32.4714,28.6695
2018-11-02,30.0028,-2791704.5317,4.7861,32.5318,28.8892
2018-11-01,30.1372,-396997.7382,4.4864,32.5847,29.0718
2018-10-31,30.2385,-1635171.0419,1.7060,32.6201,29.2454
2018-10-30,30.3487,-1509472.7714,2.5151,32.6564,29.4444
2018-10-29,30.5010,-2976648.9387,4.9242,32.7011,29.6520
2018-10-26,30.6727,-2297705.0312,8.7380,32.7453,29.8389
2018-10-25,30.8689,-1668402.0523,14.1580,32.7882,29.9987
2018-10-24,31.0777,-2067039.5444,18.6916,32.8290,30.1315
2018-10-23,31.2890,-793496.4344,22.6794,32.8611,30.2456
2018-10-22,31.4482,-2267396.2314,20.7165,32.9019,30.3609
2018-10-19,31.5692,-658823.6313,14.2450,32.9160,30.4803
2018-10-18,31.7030,-3061802.3513,4.0803,32.9409,30.6599
2018-10-17,31.8131,-2900941.1904,-2.2222,32.9702,30.8689
2018-10-16,31.9141,-3820384.3682,-14.2662,32.9988,31.0915
2018-10-15,31.9977,-5218937.8322,-21.5576,33.0300,31.3188
2018-10-12,32.0575,-5363553.2461,-37.0188,33.0630,31.5341
2018-10-11,32.0953,-5509096.6677,305.9121,33.0944,31.7266
2018-10-10,32.1133,-4184513.9096,286.9540,33.1226,31.8983
2018-10-09,32.1186,-2995506.7551,267.8396,33.1412,32.0594
2018-10-08,32.1350,-3505197.1537,249.4561,33.1613,32.2272
2018-10-05,32.1486,-4208078.4152,237.0139,33.1820,32.3939
2018-10-04,32.1593,-4161845.0392,228.8930,33.1981,32.5565
2018-10-03,32.1673,-4494758.4667,219.9199,33.2121,32.7191
2018-10-02,32.1769,-5269797.0132,207.1130,33.2286,32.8727
2018-10-01,32.2001,-5835408.8725,194.5161,33.2473,32.9950
2018-09-28,32.2251,-5986323.6719,183.7102,33.2675,33.0642
2018-09-27,32.2301,-5090812.3921,174.7001,33.2860,33.0659
2018-09-26,32.2037,-3776134.3966,167.8766,33.3002,33.0000
2018-09-25,32.1367,-2738729.2084,163.3037,33.3076,32.8810
2018-09-24,32.0285,-2711346.5976,164.8541,33.3090,32.7333
2018-09-21,31.9044,-1422676.2892,172.8200,33.3079,32.5798
2018-09-20,31.7602,631342.4635,187.9341,33.3048,32.4361
2018-09-19,31.6196,365764.1794,202.1421,33.3023,32.3129
2018-09-18,31.4817,-586012.1038,211.2566,33.3049,32.2100
2018-09-17,31.3501,-1598937.7783,213.4794,33.3120,32.1165
2018-09-14,31.2611,-1073568.8652,214.9356,33.3184,32.0251
2018-09-13,31.1591,-1309061.8043,212.8037,33.3287,31.9379
2018-09-12,31.0775,-203481.3314,208.6630,33.3386,31.8486
2018-09-11,31.0163,84733.8730,207.8660,33.3481,31.7596
2018-09-10,30.9522,-171456.9863,205.7897,33.3614,31.6687
2018-09-07,30.8745,492823.3370,197.8794,33.3778,31.5639
2018-09-06,30.7975,1713634.1293,190.3143,33.3940,31.4379
2018-09-05,30.7200,2240904.2039,186.7797,33.4093,31.2925
2018-09-04,30.6290,2268920.4084,179.2624,33.4245,31.1296
2018-08-31,30.5410,927196.5743,172.1412,33.4431,30.9476
2018-08-30,30.4496,707980.0990,166.6843,33.4631,30.7405
2018-08-29,30.3513,1459542.0499,162.2641,33.4818,30.5123
2018-08-28,30.2313,2002198.3558,160.1405,33.4975,30.2766
2018-08-27,30.1305,2857284.3915,156.6600,33.5146,30.0498
2018-08-24,30.0207,3436547.0585,154.8271,33.5344,29.8381
2018-08-23,29.9366,4186844.0506,154.2192,33.5569,29.6478
2018-08-22,29.8756,5475636.5312,148.6417,33.5756,29.4894
2018-08-21,29.8667,4437208.5412,124.8074,33.6005,29.3817
2018-08-20,29.9305,4362380.0402,98.5807,33.6262,29.3215
2018-08-17,30.0726,2931727.2228,83.0364,33.6589,29.3125
2018-08-16,30.2081,2088100.9354,80.3159,33.6915,29.3465
2018-08-15,30.4486,68033.7815,68.4505,33.7304,29.4255
2018-08-14,30.6787,-1071689.1949,56.6765,33.7714,29.5396
2018-08-13,30.8894,-3042233.5649,44.2876,33.8108,29.6896
2018-08-10,31.1032,-1527378.1772,32.0238,33.8555,29.8809
2018-08-09,31.2964,-364551.3146,18.7003,33.8980,30.1088
2018-08-08,31.4707,-758363.4290,4.5939,33.9374,30.3859
2018-08-07,31.6687,-650081.7618,-8.8510,33.9764,30.7212
2018-08-06,31.9186,-2312300.9169,-20.6473,34.0182,31.1098
2018-08-03,32.2366,-2756056.1480,-29.8023,34.0602,31.5337
2018-08-02,32.6185,-6261315.3467,-27.0625,34.1047,31.9709
2018-08-01,32.9208,-9587463.4425,-21.1789,34.1557,32.3849
2018-07-31,33.1739,-9052032.9839,-10.1667,34.2074,32.7319
2018-07-30,33.3532,-8459588.0516,1.7935,34.2532,32.9873
2018-07-27,33.4769,-9196708.3444,-6.9739,34.2998,33.1457
2018-07-26,33.5312,-6988283.2855,-27.3108,34.3374,33.2072
2018-07-25,33.5561,-1794854.0861,-44.5895,34.3455,33.2169
2018-07-24,33.6143,-2302540.1777,302.7326,34.3502,33.2513
2018-07-23,33.7051,-3457621.7957,294.0143,34.3558,33.3183
2018-07-20,33.8356,-4604313.4525,36.8560,34.3698,33.4081
2018-07-19,33.9658,-3279159.9200,56.7456,34.3824,33.4982
2018-07-18,34.0999,-3893413.3488,52.3342,34.3944,33.5855
2018-07-17,34.2282,-5755029.5284,46.6696,34.4086,33.6598
2018-07-16,34.3270,-6384721.8560,43.4587,34.4261,33.7034
2018-07-13,34.4042,-6199931.6585,37.9820,34.4463,33.7014
2018-07-12,34.4408,-4816570.1603,33.4026,34.4630,33.6553
2018-07-11,34.4569,-1696757.8288,21.3159,34.4583,33.5990
2018-07-10,34.4644,-1949035.5980,9.7087,34.4562,33.5923
2018-07-09,34.4702,-2493265.4855,3.0711,34.4515,33.6393
2018-07-06,34.4952,-3914871.4248,-1.5669,34.4571,33.7433
2018-07-05,34.5300,-3983937.0938,-1.9258,34.4657,33.8812
2018-07-03,34.5896,-3348490.2993,-6.3574,34.4728,34.0473
2018-07-02,34.6722,-3602756.5714,-10.1161,34.4792,34.2420
2018-06-29,34.7837,-5138864.7069,-15.7952,34.4930,34.4544
2018-06-28,34.8885,-4312416.2143,-21.6674,34.5041,34.6586
2018-06-27,34.9817,-5044888.6425,-28.2588,34.5196,34.8476
2018-06-26,35.0565,-3866855.4130,-38.2415,34.5306,35.0052
2018-06-25,35.1210,-2985728.0937,303.9480,34.5377,35.1368
2018-06-22,35.1955,-2206153.5228,291.8314,34.5426,35.2467
2018-06-21,35.2667,30224.9673,291.6052,34.5427,35.3376
2018-06-20,35.2939,583247.8319,83.7167,34.5441,35.4152
2018-06-19,35.2773,1387132.5384,39.9893,34.5392,35.4752
2018-06-18,35.2155,664288.6180,292.8892,34.5383,35.5249
2018-06-15,35.1197,288782.8923,261.7637,34.5336,35.5534
2018-06-14,35.0109,-502676.1911,245.1808,34.5282,35.5666
2018-06-13,34.8753,-586647.4530,238.7089,34.5228,35.5645
2018-06-12,34.6967,643378.0754,230.8444,34.5137,35.5490
2018-06-11,34.5362,1116924.0540,222.4736,34.5042,35.5294
2018-06-08,34.4273,1816212.4129,211.0709,34.4940,35.5071
2018-06-07,34.3546,1562291.6174,204.1403,34.4835,35.4839
2018-06-06,34.2913,1781596.7228,201.4165,34.4717,35.4592
2018-06-05,34.2207,909366.1261,192.9589,34.4653,35.4286
2018-06-04,34.1559,1859053.7504,183.7372,34.4562,35.3766
2018-06-01,34.1051,1823592.3320,172.8642,34.4488,35.3023
2018-05-31,34.0683,2444519.7384,167.7363,34.4416,35.1939
2018-05-30,34.0337,3374713.2910,162.2453,34.4375,35.0423
2018-05-29,34.0051,3794619.0028,156.9295,34.4333,34.8379
2018-05-25,33.9835,5282364.0311,143.6789,34.4259,34.5868
2018-05-24,33.9769,5510483.0586,129.2332,34.4118,34.3099
2018-05-23,33.9791,4688679.2739,106.0230,34.3959,34.0358
2018-05-22,33.9560,3244134.2141,90.6815,34.3820,33.7810
2018-05-21,33.9428,2930291.3538,68.1421,34.3687,33.5551
2018-05-18,33.9282,2743783.2368,52.6601,34.3562,33.3695
2018-05-17,33.9371,1312956.5342,38.5752,34.3504,33.2298
2018-05-16,33.9463,224512.7628,24.3269,34.3481,33.1293
2018-05-15,33.9509,-373789.6758,4.9042,34.3486,33.0682
2018-05-14,33.9429,-560959.9868,-14.9709,34.3557,33.0479
2018-05-11,33.9058,-93312.9365,-30.5532,34.3563,33.0695
2018-05-10,33.8546,-289189.6082,307.1778,34.3609,33.1551
2018-05-09,33.8365,-1233639.8529,287.7965,34.3673,33.2995
2018-05-08,33.8443,-2866438.4633,270.0086,34.3785,33.4953
2018-05-07,33.8909,-4056445.5069,257.1418,34.3941,33.7224
2018-05-04,33.9598,-5806157.1734,254.6781,34.4112,33.9586
2018-05-03,34.0217,-7644317.4812,252.4003,34.4369,34.1831
2018-05-02,34.0602,-7627627.9486,244.2255,34.4534,34.3697
2018-05-01,34.0882,-7694106.3511,235.2978,34.4682,34.5277
2018-04-30,34.1054,-9400953.8623,219.1350,34.4822,34.6466
2018-04-27,34.1239,-8963933.3930,209.1826,34.4945,34.7136
2018-04-26,34.1333,-8853602.0188,192.7917,34.5066,34.7184
2018-04-25,34.1537,-8428195.2992,174.9962,34.5186,34.6520
2018-04-24,34.1655,-6083614.9722,158.1655,34.5223,34.5185
2018-04-23,34.1649,-4694050.1171,142.5167,34.5165,34.3473
2018-04-20,34.1620,-3380098.3366,126.9093,34.5085,34.1682
2018-04-19,34.1687,-2129516.1179,110.8466,34.4964,33.9951
2018-04-18,34.2010,-2570228.4048,94.6262,34.4919,33.8371
2018-04-17,34.2589,-2019229.0778,80.3766,34.4892,33.6815
2018-04-16,34.3256,-933366.1399,68.4873,34.4858,33.5320
2018-04-13,34.3645,-891731.4093,62.5857,34.4861,33.3986
2018-04-12,34.4165,619902.0796,51.6686,34.4793,33.2888
2018-04-11,34.4308,696965.4557,41.6669,34.4782,33.2263
2018-04-10,34.3880,978249.0558,40.8489,34.4823,33.2064
2018-04-09,34.3935,714069.5500,35.0787,34.4830,33.2324
2018-04-06,34.4144,1944817.8019,29.3365,34.4863,33.3231
2018-04-05,34.4556,1986137.1027,24.2218,34.4882,33.4830
2018-04-04,34.5461,931013.2675,20.2404,34.4910,33.7164
2018-04-03,34.7193,-1219380.7224,17.8360,34.5098,34.0076
2018-04-02,34.9433,-2856617.8520,14.4817,34.5260,34.3165
2018-03-29,35.2271,-3206999.1218,8.7153,34.5370,34.6438
2018-03-28,35.4979,-5322489.7032,-4.8106,34.5503,34.9848
2018-03-27,35.7019,-6280779.3096,-15.1687,34.5724,35.3116
2018-03-26,35.8873,-6520017.5874,-27.5913,34.5837,35.5930
2018-03-23,36.0624,-8214710.3639,312.3526,34.5992,35.8352
2018-03-22,36.2333,-5740461.5146,301.1231,34.6065,36.0213
2018-03-21,36.3557,-4012979.5173,288.2736,34.6049,36.1661
2018-03-20,36.4557,-2886268.0602,-32.2381,34.5974,36.2836
2018-03-19,36.5390,-2773168.1517,71.2744,34.5892,36.3745
2018-03-16,36.6107,-3592636.4158,72.3660,34.5848,36.4242
2018-03-15,36.6496,-3327926.1598,52.7546,34.5823,36.4156
2018-03-14,36.6286,376197.7090,25.6848,34.5680,36.3536
2018-03-13,36.5527,2471391.6443,-25.3667,34.5436,36.2792
2018-03-12,36.4801,4314036.4971,300.6689,34.5156,36.2261
2018-03-09,36.4313,4590402.1257,279.5762,34.4885,36.2083
2018-03-08,36.4242,2551171.2250,260.9820,34.4613,36.2254
2018-03-07,36.4814,859394.5288,234.5826,34.4407,36.2694
2018-03-06,36.5440,-847506.4826,194.2920,34.4269,36.3151
2018-03-05,36.6069,-2360535.2105,148.5772,34.4076,36.3431
2018-03-02,36.7250,-4646044.1903,112.3755,34.3945,36.3546
2018-03-01,36.8382,-5737609.3466,105.9709,34.3827,36.3324
2018-02-28,36.9853,-3420147.2531,87.0326,34.3613,36.2849
2018-02-27,37.1266,-1614343.6102,71.8738,34.3330,36.2478
2018-02-26,37.2787,-400702.2056,58.8486,34.3021,36.2485
2018-02-23,37.4472,-2251822.1139,47.2035,34.2721,36.2994
2018-02-22,37.6366,-2388178.3200,36.3661,34.2492,36.4004
2018-02-21,37.8140,132836.0710,24.9047,34.2237,36.5432
2018-02-20,37.9838,1789035.0822,13.0596,34.1996,36.7389
2018-02-16,38.1351,2531904.5780,-6.8562,34.1751,36.9892
2018-02-15,38.2380,2900887.9647,-22.4218,34.1492,37.2974
2018-02-14,38.3794,1258205.8183,-42.8418,34.1200,37.6613
2018-02-13,38.5896,-1883144.2864,302.1212,34.1029,38.0649
2018-02-12,38.8052,-3911941.8270,289.2475,34.0846,38.4583
2018-02-09,38.9746,-6001603.2658,275.7269,34.0718,38.8155
2018-02-08,39.0958,-6481266.3260,256.3318,34.0589,39.1020
2018-02-07,39.1487,-3800015.3408,247.6494,34.0241,39.3114
2018-02-06,39.1827,-3518100.2899,185.9247,33.9896,39.4702
2018-02-05,39.1902,-5465142.9962,167.4163,33.9688,39.5512
2018-02-02,39.1373,-2855711.7260,215.8294,33.9254,39.5300
2018-02-01,39.0597,-1792175.8431,231.0527,33.8691,39.4665
2018-01-31,38.9667,-2378822.9718,238.0514,33.8118,39.3933
2018-01-30,38.8630,816186.6832,235.9418,33.7519,39.3193
2018-01-29,38.7967,3356317.4448,233.0865,33.6896,39.2595
2018-01-26,38.7396,5057710.0257,229.4822,33.6247,39.2282
2018-01-25,38.6939,4729938.0115,229.6710,33.5640,39.2360
2018-01-24,38.6382,6351638.6966,228.5484,33.4999,39.2812
2018-01-23,38.5891,5888368.6055,221.3830,33.4354,39.3723
2018-01-22,38.5743,2116416.9606,212.6101,33.3750,39.4987
2018-01-19,38.5887,-3458765.1424,203.6188,33.3264,39.6274
2018-01-18,38.6249,-5864308.7946,198.5269,33.2818,39.7124
2018-01-17,38.6225,-4749573.9869,193.0390,33.2312,39.7354
2018-01-16,38.6019,-4016620.6821,189.0598,33.1815,39.7031
2018-01-12,38.5479,-1347856.1318,187.8999,33.1180,39.6216
2018-01-11,38.4741,-2844513.1830,187.5556,33.0481,39.5273
2018-01-10,38.3886,-3011003.9139,186.5097,32.9802,39.4338
2018-01-09,38.2805,-2388267.6923,183.9115,32.9143,39.3354
2018-01-08,38.1537,-1149798.3794,182.3893,32.8474,39.2296
2018-01-05,38.0038,-179632.6873,182.5508,32.7791,39.1218
2018-01-04,37.7918,-1339901.3652,186.7018,32.7096,39.0179
2018-01-03,37.5289,-1011214.3487,201.7445,32.6413,38.9192
2018-01-02,37.2738,-2192804.7071,208.2706,32.5784,38.8181
2017-12-29,36.9953,-2589364.5074,213.5805,32.5156,38.7023
2017-12-28,36.8064,-2019827.5548,212.4140,32.4488,38.5748
2017-12-27,36.6372,-2790891.7265,209.6917,32.3846,38.4435
2017-12-26,36.4911,-3400578.9339,209.5644,32.3207,38.3029
2017-12-22,36.3064,-4279067.0463,205.8143,32.2563,38.1538
2017-12-21,36.1295,-6008516.1319,202.0015,32.1922,37.9976
2017-12-20,35.9544,-6947637.5492,200.7349,32.1318,37.8320
2017-12-19,35.7196,-6109380.6249,196.7683,32.0693,37.6517
2017-12-18,35.4809,-4940882.9510,192.6372,32.0017,37.4633
2017-12-15,35.2439,-5933059.2294,188.2446,31.9434,37.2666
2017-12-14,35.0420,-5350307.2625,183.3337,31.8901,37.0299
2017-12-13,34.8679,-3691791.6583,178.8594,31.8391,36.7367
2017-12-12,34.7236,-503276.2099,175.3805,31.7829,36.3864
2017-12-11,34.6399,1745197.6539,173.4235,31.7239,35.9985
2017-12-08,34.4944,1273698.8424,172.2176,31.6662,35.5891
2017-12-07,34.3196,1951210.6905,172.2106,31.6037,35.1715
2017-12-06,34.1195,3040568.2785,169.9261,31.5476,34.7693
2017-12-05,33.8139,3651275.8517,177.2646,31.4915,34.3886
2017-12-04,33.5293,5430630.5359,186.8723,31.4298,34.0532
2017-12-01,33.3024,4250878.9693,191.5132,31.3779,33.7866
2017-11-30,33.1392,2587728.1571,188.3396,31.3333,33.5746
2017-11-29,33.0287,2638037.9665,178.6530,31.2912,33.4076
2017-11-28,32.9595,1207931.3126,155.9364,31.2544,33.2788
2017-11-27,32.9140,-1028382.5293,138.9560,31.2345,33.1658
2017-11-24,32.8523,-856154.0557,122.0866,31.2119,33.0353
2017-11-22,32.7791,-244894.6634,99.9697,31.1864,32.9038
2017-11-21,32.7086,229708.1926,75.5144,31.1590,32.7895
2017-11-20,32.6426,391169.0108,39.1151,31.1312,32.7085
2017-11-17,32.5941,2576077.7797,0.7740,31.1037,32.6709
2017-11-16,32.5825,1966310.5392,-24.5177,31.0805,32.6798
2017-11-15,32.5919,3286746.2589,-42.4529,31.0558,32.7260
2017-11-14,32.6205,1958825.2909,303.5885,31.0455,32.8001
2017-11-13,32.6053,889726.8361,281.6034,31.0321,32.8649
2017-11-10,32.5333,-390522.5170,263.3730,31.0205,32.9190
2017-11-09,32.4494,-20716.6155,249.2622,31.0093,32.9496
2017-11-08,32.3495,-609664.0513,232.8582,31.0001,32.9477
2017-11-07,32.2508,135422.7939,223.5733,30.9872,32.9082
2017-11-06,32.1537,1712496.5205,212.9884,30.9687,32.8429
2017-11-03,32.0495,2939791.4210,195.5882,30.9481,32.7667
2017-11-02,31.9529,2570032.0841,180.1447,30.9262,32.6850
2017-11-01,31.8645,744239.6131,165.0928,30.9073,32.5978
2017-10-31,31.7571,522647.7398,155.4728,30.8891,32.4967
2017-10-30,31.6277,788262.5024,150.3825,30.8724,32.3790
2017-10-27,31.4559,1171208.6594,166.7884,30.8531,32.2443
2017-10-26,31.2771,-313882.0468,202.5572,30.8354,32.1008
2017-10-25,31.1253,-1210277.3429,215.5871,30.8169,31.9503
2017-10-24,30.9735,-1613760.8494,221.5195,30.8011,31.8015
2017-10-23,30.8177,-990631.9483,223.2244,30.7814,31.6638
2017-10-20,30.6682,1735533.4653,221.5199,30.7563,31.5618
2017-10-19,30.5385,4279563.9285,216.8701,30.7295,31.5120
2017-10-18,30.4393,2188602.9948,209.0897,30.7248,31.5014
2017-10-17,30.3466,552819.6689,200.3745,30.7208,31.4739
2017-10-16,30.2494,735008.7237,192.0273,30.7120,31.4248
2017-10-13,30.1619,-1349812.7895,179.9726,30.7092,31.3528
2017-10-12,30.1026,-720616.2944,170.1595,30.7118,31.2351
2017-10-11,30.0511,1118739.1751,152.9445,30.7056,31.0636
2017-10-10,29.9955,2199658.1060,141.2505,30.6953,30.8622
2017-10-09,29.9249,2287336.0780,135.8191,30.6872,30.6406
2017-10-06,29.8418,2935664.2143,130.5294,30.6793,30.3978
2017-10-05,29.7463,3538184.5646,132.4769,30.6714,30.1404
2017-10-04,29.6569,2857281.6791,134.3277,30.6648,29.8786
2017-10-03,29.5719,4206090.0183,128.5836,30.6538,29.6262
2017-10-02,29.5095,3642606.3318,112.4808,30.6456,29.4072
2017-09-29,29.4598,2778797.1428,102.9520,30.6403,29.2294
2017-09-28,29.4441,3353392.3136,83.2292,30.6348,29.1023
2017-09-27,29.4450,2379583.2317,64.7183,30.6321,29.0372
2017-09-26,29.4617,224563.4525,56.7948,30.6361,29.0312
2017-09-25,29.5186,-896150.9296,43.8990,30.6464,29.0691
2017-09-22,29.5739,-1623159.9841,32.0246,30.6595,29.1362
2017-09-21,29.6396,-3684668.2730,22.2145,30.6777,29.2241
2017-09-20,29.7030,-3695871.5955,16.5694,30.6946,29.3234
2017-09-19,29.7829,-3050568.6792,6.4412,30.7097,29.4394
2017-09-18,29.8544,-2852582.6610,-4.0754,30.7241,29.5759
2017-09-15,29.9256,-5306053.6892,-9.8768,30.7404,29.7292
2017-09-14,30.0099,-6812607.8716,-16.5715,30.7623,29.8865
2017-09-13,30.0934,-4810588.9830,-31.5824,30.7774,30.0338
2017-09-12,30.1875,-4249455.1130,308.0150,30.7928,30.1791
2017-09-11,30.2904,-3882573.9491,290.9116,30.8074,30.3108
2017-09-08,30.4008,-4738377.2267,240.3283,30.8275,30.4148
2017-09-07,30.4698,-3783471.0770,93.1689,30.8497,30.4693
2017-09-06,30.4525,-1714510.1024,67.4849,30.8582,30.4755
2017-09-05,30.3920,432503.8463,304.7679,30.8664,30.4661
2017-09-01,30.3624,1829090.5762,278.6761,30.8681,30.4487
2017-08-31,30.3407,1269544.5745,247.5934,30.8690,30.4406
2017-08-30,30.3172,369629.6666,235.0565,30.8705,30.4421
2017-08-29,30.3059,-1380431.3674,218.7645,30.8783,30.4457
2017-08-28,30.2848,-2399977.9166,206.6916,30.8867,30.4365
2017-08-25,30.2613,-1781522.2886,196.6368,30.8882,30.4184
2017-08-24,30.2532,-1560828.9537,190.3878,30.8918,30.4063
2017-08-23,30.2504,-1832989.7714,180.0704,30.8959,30.3935
2017-08-22,30.2568,-2590490.7320,155.6392,30.9029,30.3754
2017-08-21,30.2577,-4447277.5033,132.9010,30.9086,30.3452
2017-08-18,30.2657,-5768542.1825,109.3747,30.9168,30.3055
2017-08-17,30.2701,-5027828.4246,86.9240,30.9241,30.2577
2017-08-16,30.2677,-2994896.7413,64.7915,30.9247,30.2180
2017-08-15,30.2628,-2402225.5214,43.6135,30.9171,30.2143
2017-08-14,30.2783,-5481110.2530,30.0515,30.9172,30.2594
2017-08-11,30.2944,-5468149.9837,-9.7527,30.9315,30.3212
2017-08-10,30.2669,-6039830.6179,-37.7813,30.9476,30.3626
2017-08-09,30.2106,-5558750.8046,294.8080,30.9565,30.3843
2017-08-08,30.1414,-5497412.2548,272.7091,30.9613,30.4053
2017-08-07,30.0699,-5786551.0143,254.1358,30.9676,30.4309
2017-08-04,30.0070,-6956554.0224,228.5984,30.9785,30.4500
2017-08-03,29.9712,-5494066.9001,212.1721,30.9867,30.4481
2017-08-02,29.9508,-4838276.0292,186.0943,30.9977,30.4244
2017-08-01,29.9407,-5456125.3075,168.1009,31.0085,30.3688
2017-07-31,29.9220,-3879255.8069,143.4718,31.0134,30.2826
2017-07-28,29.8899,-4685137.2066,126.6034,31.0230,30.1753
2017-07-27,29.8388,-3217993.8414,105.8515,31.0314,30.0404
2017-07-26,29.7590,-2272507.5112,84.4350,31.0359,29.8924
2017-07-25,29.6731,-218653.4208,52.7154,31.0356,29.7558
2017-07-24,29.5856,674148.4490,-10.1768,31.0361,29.6547
2017-07-21,29.4983,1564419.0470,283.0922,31.0385,29.5993
2017-07-20,29.4104,2052679.6301,262.0337,31.0339,29.5970
2017-07-19,29.3361,1483542.9404,245.5400,31.0502,29.6518
2017-07-18,29.2344,803687.5727,236.0091,31.0664,29.7153
2017-07-17,29.1025,827192.6307,231.1354,31.0829,29.7866
2017-07-14,28.9685,13616.9981,224.6696,31.0991,29.8614
2017-07-13,28.8532,-826602.0608,216.2053,31.1188,29.9330
2017-07-12,28.7520,-1185396.3476,208.6603,31.1381,29.9867
2017-07-11,28.6731,-3233864.7764,200.9193,31.1587,30.0163
2017-07-10,28.6265,-4894596.8935,196.1617,31.1789,30.0144
2017-07-07,28.5902,-3851021.4996,194.2607,31.1941,29.9819
2017-07-06,28.5463,-4236752.0464,190.5430,31.2108,29.9282
2017-07-05,28.5051,-3252646.3424,191.6927,31.2251,29.8529
2017-07-03,28.4448,-2155271.3101,191.0783,31.2357,29.7661
2017-06-30,28.3753,-1875362.9145,187.7934,31.2476,29.6775
2017-06-29,28.3010,-1631903.9664,186.6100,31.2624,29.5851
2017-06-28,28.2078,911255.5660,185.2665,31.2727,29.4864
2017-06-27,28.1008,2544960.0622,181.8044,31.2889,29.3883
2017-06-26,28.0013,4581649.5357,177.7022,31.3044,29.2755
2017-06-23,27.9210,4125205.1767,172.0738,31.3273,29.1438
2017-06-22,27.8383,6908141.6062,166.8844,31.3458,28.9800
2017-06-21,27.7696,8594748.1488,160.2957,31.3638,28.7971
2017-06-20,27.7154,8161506.4496,145.4665,31.3831,28.5988
2017-06-19,27.6561,9508601.5225,134.9734,31.4031,28.3865
2017-06-16,27.5806,8452409.8268,131.0923,31.4227,28.1647
2017-06-15,27.5004,7787225.2058,135.0111,31.4425,27.9401
2017-06-14,27.4334,6200461.0125,138.4886,31.4674,27.7146
2017-06-13,27.3746,3961613.8673,134.1670,31.4943,27.4830
2017-06-12,27.3195,3479751.6751,129.6856,31.5212,27.2510
2017-06-09,27.2778,4459593.9147,125.0930,31.5496,27.0313
2017-06-08,27.2535,6559413.4022,109.3659,31.5761,26.8366
2017-06-07,27.2505,8907694.4369,92.3382,31.6038,26.6838
2017-06-06,27.2698,6905125.8237,77.3514,31.6356,26.5771
2017-06-05,27.3030,2745953.6566,73.0742,31.6751,26.5081
2017-06-02,27.3722,-648190.7062,62.0839,31.7188,26.4603
2017-06-01,27.4318,-2135071.6793,51.4039,31.7667,26.4256
2017-05-31,27.4709,-3204794.3371,47.7168,31.8149,26.3998
2017-05-30,27.5205,-3718998.0057,35.1995,31.8625,26.3896
2017-05-26,27.5540,-2826501.6596,30.1253,31.9085,26.4052
2017-05-25,27.6010,-4377973.3422,19.2241,31.9566,26.4556
2017-05-24,27.6809,-6891743.5478,15.5105,32.0070,26.5408
2017-05-23,27.7856,-6744125.5663,9.6822,32.0593,26.6610
2017-05-22,27.9600,-7411864.2061,15.4918,32.1104,26.8196
2017-05-19,28.2581,-7551045.4177,33.5199,32.1619,27.0269
2017-05-18,28.5144,-3693233.5090,33.7097,32.2063,27.2878
2017-05-17,28.9211,-3191162.6842,45.5739,32.2647,27.6066
2017-05-16,29.3040,-4387859.3074,46.6541,32.3259,27.9458
2017-05-15,29.6336,-3347095.1738,48.0250,32.3775,28.3005
2017-05-12,30.0828,-6828254.2775,41.8249,32.4342,28.6839
2017-05-11,30.4781,-9878080.5983,32.1355,32.4910,29.0798
2017-05-10,30.8136,-7536175.6453,19.9861,32.5397,29.4902
2017-05-09,31.1123,-4414893.9005,6.7808,32.5854,29.9330
2017-05-08,31.3833,-1256693.8799,-7.3795,32.6273,30.4114
2017-05-05,31.6420,2119478.1984,-22.7904,32.6682,30.9244
2017-05-04,31.9120,4729705.9455,-38.8782,32.7068,31.4570
2017-05-03,32.2010,5810869.6661,304.0901,32.7464,31.9846
2017-05-02,32.5150,4040117.8552,284.4017,32.7881,32.4642
2017-05-01,32.8376,-3879785.6367,252.9476,32.8369,32.8415
2017-04-28,33.1039,-4457965.5191,188.2691,32.8859,33.0598
2017-04-27,33.2878,-4125702.3369,135.7155,32.9403,33.1000
2017-04-26,33.3280,-2537825.6620,99.3975,32.9353,32.9918
2017-04-25,33.3377,-2383484.8147,77.0332,32.9272,32.8860
2017-04-24,33.3187,-1398492.1575,53.0632,32.9145,32.8044
2017-04-21,33.2884,-863057.4495,26.8058,32.9005,32.7689
2017-04-20,33.2643,-492306.0850,-11.8131,32.8916,32.7854
2017-04-19,33.2736,-1731271.5586,-33.9096,32.8873,32.8414
2017-04-18,33.3385,-1987381.9764,301.6011,32.8855,32.9239
2017-04-17,33.4494,-2897928.1659,285.2150,32.8863,33.0211
2017-04-13,33.6295,-3905435.7330,87.5368,32.8911,33.1193
2017-04-12,33.7944,-2417490.3483,85.5257,32.8933,33.2053
2017-04-11,33.9594,-2339214.5526,76.8268,32.8941,33.2801
2017-04-10,34.1200,-3827870.8950,67.4713,32.8976,33.3408
2017-04-07,34.2675,-2179025.7573,57.1196,32.8946,33.3821
2017-04-06,34.4179,-2087986.5822,46.8906,32.8939,33.4175
2017-04-05,34.5519,-1243007.8372,35.3464,32.8906,33.4485
2017-04-04,34.6666,148153.9117,17.0765,32.8769,33.4955
2017-04-03,34.7583,378848.5252,5.3263,32.8698,33.5878
2017-03-31,34.8474,677852.9284,-5.6964,32.8539,33.7253
2017-03-30,34.9630,138776.1415,-14.1391,32.8396,33.9329
2017-03-29,35.1183,-1741245.8930,-19.1306,32.8296,34.2027
2017-03-28,35.2830,-3499989.3875,-24.5553,32.8215,34.5145
2017-03-27,35.5018,-6287353.1273,-25.5226,32.8216,34.8443
2017-03-24,35.7065,-8545236.2731,-22.3528,32.8239,35.1550
2017-03-23,35.8676,-9636909.6265,-17.1631,32.8165,35.4289
2017-03-22,36.0335,-10715713.4793,-2.4469,32.8139,35.6649
2017-03-21,36.1751,-10350931.8170,11.9153,32.8131,35.8354
2017-03-20,36.2779,-6169354.5718,16.9566,32.7971,35.9379
2017-03-17,36.3447,-2878111.6575,14.1739,32.7741,36.0092
2017-03-16,36.3961,-1354783.1489,6.1923,32.7442,36.0696
2017-03-15,36.4047,-640939.8558,1.5524,32.7112,36.1369
2017-03-14,36.4169,-35639.9433,-0.1307,32.6777,36.2170
2017-03-13,36.4597,-1148133.3654,-4.4016,32.6467,36.3074
2017-03-10,36.5060,-1825383.9827,-10.7712,32.6129,36.4012
2017-03-09,36.5644,-1931047.8535,-17.3058,32.5779,36.5010
2017-03-08,36.6068,-1441155.1258,-28.2554,32.5441,36.6015
2017-03-07,36.6421,-613529.8863,-41.5858,32.5102,36.6902
2017-03-06,36.6699,-445135.9446,301.9854,32.4793,36.7557
2017-03-03,36.6614,-490564.1405,278.8520,32.4458,36.7850
2017-03-02,36.6397,-248983.7313,258.5472,32.4109,36.7822
2017-03-01,36.6063,2377071.2651,243.3454,32.3657,36.7567
2017-02-28,36.5642,3605675.8345,231.4906,32.3171,36.7329
2017-02-27,36.5312,3516229.1784,218.3433,32.2721,36.7125
2017-02-24,36.5078,1857997.0004,207.2930,32.2294,36.6801
2017-02-23,36.4692,526070.2198,192.7783,32.1888,36.6256
2017-02-22,36.4335,711714.5962,177.1200,32.1416,36.5470
2017-02-21,36.4063,1235023.5677,150.8175,32.0967,36.4587
2017-02-17,36.3655,2197553.3878,134.6953,32.0460,36.3613
2017-02-16,36.3132,1073173.1953,118.7985,32.0003,36.2693
2017-02-15,36.2536,1643847.6725,100.0153,31.9478,36.1823
2017-02-14,36.1921,2141366.1131,44.9536,31.8935,36.1216
2017-02-13,36.1590,807285.0960,-43.9582,31.8456,36.0898
2017-02-10,36.1372,295527.6789,285.0369,31.7993,36.0725
2017-02-09,36.1225,1227524.8583,265.1156,31.7495,36.0679
2017-02-08,36.1346,-139987.0494,238.4360,31.7083,36.0768
2017-02-07,36.1499,-552067.8729,202.9562,31.6662,36.0803
2017-02-06,36.1731,405216.9391,160.7679,31.6159,36.0860
2017-02-03,36.2380,-734193.6858,114.3898,31.5691,36.1082
2017-02-02,36.3224,-1694482.4170,91.6059,31.5249,36.1334
2017-02-01,36.4075,-254309.9110,67.5397,31.4833,36.1520
2017-01-31,36.4606,1059706.4316,53.9986,31.4371,36.1613
2017-01-30,36.4917,1300092.6542,37.0350,31.3879,36.1771
2017-01-27,36.5119,-576476.1246,7.6337,31.3368,36.2106
2017-01-26,36.5531,-2228645.3531,-10.5286,31.2827,36.2702
2017-01-25,36.6109,-4508492.5703,-22.0358,31.2349,36.3588
2017-01-24,36.6554,-3334035.0072,-31.1984,31.1828,36.4631
2017-01-23,36.6964,-2556251.9206,-40.1589,31.1345,36.5869
2017-01-20,36.7094,-675204.2504,303.5815,31.0850,36.7165
2017-01-19,36.7016,684236.4535,281.6644,31.0356,36.8472
2017-01-18,36.6951,2323043.8313,259.8569,30.9858,36.9698
2017-01-17,36.6730,1854156.4015,244.9595,30.9373,37.0748
2017-01-13,36.6110,3199607.5015,235.6842,30.8851,37.1531
2017-01-12,36.5361,3311389.1308,229.9516,30.8300,37.2068
2017-01-11,36.4316,1707704.8251,224.4675,30.7762,37.2364
2017-01-10,36.3314,1349512.4370,221.5786,30.7153,37.2404
2017-01-09,36.2261,2142007.7245,218.7875,30.6515,37.2354
2017-01-06,36.1279,2093593.4370,212.2626,30.5883,37.2273
2017-01-05,36.0685,2646375.8873,211.4444,30.5226,37.2177
2017-01-04,35.9885,2747099.9575,210.5464,30.4505,37.2162
2017-01-03,35.8851,1110385.9761,205.2044,30.3813,37.2312
2016-12-30,35.7638,270028.8303,199.9990,30.3170,37.2438
2016-12-29,35.6354,1080683.0326,195.1930,30.2582,37.2304
2016-12-28,35.4960,2822130.4088,191.9232,30.1963,37.1749
2016-12-27,35.3865,4967864.6249,190.1036,30.1269,37.0871
2016-12-23,35.2882,5685795.2143,188.6376,30.0561,36.9831
2016-12-22,35.1335,5516601.0092,187.4180,29.9879,36.8640
2016-12-21,34.8774,6188287.6169,186.4490,29.9161,36.7280
2016-12-20,34.5482,6383400.2935,189.7825,29.8414,36.5873
2016-12-19,34.1700,5081641.7525,200.2285,29.7685,36.4482
2016-12-16,33.8075,4737457.3740,207.3453,29.6998,36.3054
2016-12-15,33.5394,5995543.5359,208.4048,29.6251,36.1529
2016-12-14,33.3108,4141679.9229,207.9346,29.5581,35.9984
2016-12-13,33.1506,4733087.3303,206.4662,29.4933,35.8238
2016-12-12,33.0641,4126619.0240,207.0910,29.4263,35.6299
2016-12-09,32.9873,5921491.7063,208.1417,29.3554,35.4316
2016-12-08,32.9293,5467856.8990,211.8873,29.2828,35.2448
2016-12-07,32.7880,3704131.7762,212.6005,29.2121,35.0741
2016-12-06,32.6368,1934419.2283,212.2530,29.1513,34.9079
2016-12-05,32.4597,1262514.4289,211.5438,29.0895,34.7221
2016-12-02,32.2433,2853875.2647,206.7454,29.0313,34.5150
2016-12-01,32.0647,5395984.1725,205.0195,28.9705,34.2769
2016-11-30,31.8417,5479308.9130,202.5937,28.9129,34.0076
2016-11-29,31.5536,5521919.9395,195.4639,28.8596,33.6936
2016-11-28,31.2591,8934385.4137,187.8525,28.8071,33.3255
2016-11-25,30.9529,11959743.3699,180.1057,28.7498,32.9101
2016-11-23,30.6339,13387364.1936,172.4517,28.6868,32.4690
2016-11-22,30.3214,12186640.7585,162.3638,28.6331,32.0169
2016-11-21,30.0404,14436916.2971,155.6549,28.5805,31.5413
2016-11-18,29.7337,15199338.1223,150.4058,28.5286,31.0531
2016-11-17,29.3987,14676325.9179,147.8837,28.4785,30.5665
2016-11-16,29.0495,14182524.5098,160.5883,28.4346,30.0964
2016-11-15,28.7646,17512768.9544,178.4398,28.3876,29.6599
2016-11-14,28.5016,15715023.0091,201.1415,28.3347,29.2970
2016-11-11,28.2935,11233978.3617,216.0678,28.2899,29.0383
2016-11-10,28.0980,5751015.9273,218.5377,28.2580,28.8700
2016-11-09,27.9491,1356711.9515,214.3765,28.2347,28.7603
2016-11-08,27.8501,-2693946.8602,205.5548,28.2275,28.6779
2016-11-07,27.7700,-4037238.3901,195.0599,28.2208,28.5823
2016-11-04,27.7085,-6423675.8207,189.3870,28.2147,28.4676
2016-11-03,27.6434,-5761559.7301,176.1315,28.2143,28.3249
2016-11-02,27.5784,-4089540.8128,162.6800,28.2116,28.1421
2016-11-01,27.5143,-2004697.6956,156.1165,28.2082,27.9283
2016-10-31,27.4420,-345807.6938,141.8563,28.2025,27.6956
2016-10-28,27.3624,1691804.7524,126.7494,28.1915,27.4643
2016-10-27,27.3022,1259610.5709,108.8345,28.1830,27.2581
2016-10-26,27.2531,1151632.6563,88.6018,28.1763,27.0838
2016-10-25,27.2102,453265.2184,66.1133,28.1741,26.9500
2016-10-24,27.1726,325668.7544,41.6264,28.1685,26.8634
2016-10-21,27.1547,-1899462.3201,18.6355,28.1661,26.8418
2016-10-20,27.1540,-5173563.9030,-1.4907,28.1691,26.8799
2016-10-19,27.1758,-5861745.6315,-17.6232,28.1804,26.9604
2016-10-18,27.2070,-7214175.9826,-32.5074,28.1971,27.0595
2016-10-17,27.2331,-6864174.1397,310.6458,28.2118,27.1632
2016-10-14,27.2635,-6154565.3988,292.6099,28.2274,27.2705
2016-10-13,27.3001,-6956745.5248,273.0103,28.2435,27.3710
2016-10-12,27.3325,-8185248.6331,257.7310,28.2631,27.4527
2016-10-11,27.3431,-8183714.0301,234.9506,28.2810,27.5003
2016-10-10,27.3339,-6934888.7715,216.1847,28.2967,27.5128
2016-10-07,27.3105,-6441771.8669,201.6376,28.3105,27.4924
2016-10-06,27.2784,-3391858.5782,189.5628,28.3227,27.4439
2016-10-05,27.2434,-454263.1994,178.1360,28.3275,27.3762
2016-10-04,27.2214,-1061139.8244,163.6638,28.3369,27.3057
2016-10-03,27.2131,2621693.5250,145.9076,28.3433,27.2275
2016-09-30,27.2160,4430359.2007,125.7702,28.3484,27.1542
2016-09-29,27.2279,3535378.5570,93.1065,28.3556,27.0929
2016-09-28,27.2297,4022296.0525,72.9030,28.3616,27.0456
2016-09-27,27.2278,3438094.7960,40.3637,28.3671,27.0197
2016-09-26,27.2232,2323448.5068,18.9042,28.3783,27.0153
2016-09-23,27.2204,3062148.1242,-12.0986,28.3907,27.0215
2016-09-22,27.2318,4051731.9797,-34.9669,28.4014,27.0393
2016-09-21,27.2566,2823247.0532,302.7370,28.4140,27.0728
2016-09-20,27.2904,2820215.3378,289.2446,28.4288,27.1173
2016-09-19,27.3349,3771714.3055,281.9494,28.4411,27.1690
2016-09-16,27.3838,2522856.0106,32.0656,28.4553,27.2299
2016-09-15,27.4364,-655775.1078,70.5812,28.4715,27.2896
2016-09-14,27.4771,-1995342.5509,69.8456,28.4888,27.3376
2016-09-13,27.5028,-2598979.7723,64.6360,28.5067,27.3662
2016-09-12,27.5072,-1934403.4958,71.9080,28.5211,27.3721
2016-09-09,27.5247,-2601007.8974,70.0151,28.5387,27.3592
2016-09-08,27.5353,501207.0625,65.2273,28.5511,27.3246
2016-09-07,27.5440,2763216.9506,58.4353,28.5607,27.2851
2016-09-06,27.5563,2553208.6502,44.6871,28.5716,27.2512
2016-09-02,27.5553,3385720.7395,28.1578,28.5797,27.2280
2016-09-01,27.5574,2623821.8228,11.9237,28.5870,27.2285
2016-08-31,27.5803,1153835.2367,0.9580,28.5946,27.2577
2016-08-30,27.6213,-1954249.1077,-6.4739,28.6076,27.3122
2016-08-29,27.6752,-3232038.9936,-12.9388,28.6213,27.3782
2016-08-26,27.7348,-4184272.0866,-14.6869,28.6382,27.4505
2016-08-25,27.8012,-4289383.9510,-10.0228,28.6538,27.5212
2016-08-24,27.8610,-3921452.3213,-4.7863,28.6694,27.5928
2016-08-23,27.9107,-2986578.0811,-0.1271,28.6830,27.6658
2016-08-22,27.9512,-2616634.9574,2.6360,28.6956,27.7445
2016-08-19,27.9892,-3719123.8771,4.9200,28.7090,27.8273
2016-08-18,28.0223,-5280082.7124,5.3078,28.7246,27.9080
2016-08-17,28.0356,-6244428.4792,-2.8164,28.7380,27.9797
2016-08-16,28.0207,-6884055.7285,-18.0860,28.7525,28.0441
2016-08-15,27.9643,-5759918.9698,-43.3209,28.7637,28.0993
2016-08-12,27.8702,-5688167.1218,293.2311,28.7728,28.1514
2016-08-11,27.7359,-6985744.7222,266.4552,28.7862,28.1998
2016-08-10,27.6349,-6836301.9552,256.5574,28.7972,28.2349
2016-08-09,27.5149,-7044629.3777,248.4293,28.8071,28.2635
2016-08-08,27.3759,-6809472.9415,241.4855,28.8148,28.2910
2016-08-05,27.2277,-6570622.2216,234.9678,28.8197,28.3254
2016-08-04,27.0902,-6817328.7374,227.7852,28.8250,28.3700
2016-08-03,26.9785,-7871924.2730,219.2973,28.8344,28.4150
2016-08-02,26.8824,-8599766.5820,209.9219,28.8491,28.4407
2016-08-01,26.7867,-5930875.0304,195.1682,28.8589,28.4314
2016-07-29,26.7182,-3976306.6481,185.9924,28.8685,28.3913
2016-07-28,26.6921,-2956862.5696,171.1308,28.8786,28.3132
2016-07-27,26.7482,-1328138.2250,151.3897,28.8870,28.1903
2016-07-26,26.9015,-1538294.1228,136.2213,28.8962,28.0204
2016-07-25,27.1126,342328.7844,112.5033,28.9039,27.7988
2016-07-22,27.2832,1482499.4499,92.8700,28.9099,27.5287
2016-07-21,27.3734,1695451.5091,76.1838,28.9129,27.2158
2016-07-20,27.4014,1447234.9117,66.5600,28.9215,26.8665
2016-07-19,27.4185,3692453.9601,62.1402,28.9259,26.4774
2016-07-18,27.4733,4762952.0374,57.4412,28.9327,26.0689
2016-07-15,27.5651,6127511.2181,47.8456,28.9371,25.6540
2016-07-14,27.6372,6821181.3460,34.7447,28.9433,25.2596
2016-07-13,27.6314,8037320.9311,29.5018,28.9469,24.9088
2016-07-12,27.6589,8017183.4818,24.5782,28.9570,24.6319
2016-07-11,27.7304,9352362.3673,19.8139,28.9666,24.4426
2016-07-08,27.8715,8071070.3972,11.6932,28.9815,24.3645
2016-07-07,28.0365,5689645.2579,3.7483,28.9985,24.4025
2016-07-06,28.2292,1474395.0917,-3.6696,29.0354,24.5509
2016-07-05,28.4214,278986.8871,-14.6725,29.0777,24.7725
2016-07-01,28.5881,-176486.8100,-25.8549,29.1150,25.0687
2016-06-30,28.7432,-3805285.0008,-33.9257,29.1542,25.4552
2016-06-29,28.9173,-10005081.3325,-44.9031,29.1963,25.9232
2016-06-28,29.1072,-14649839.9584,305.6903,29.2471,26.4506
2016-06-27,29.2753,-16571181.9622,296.5534,29.3030,27.0021
2016-06-24,29.3979,-13209782.1872,290.4703,29.3536,27.5582
2016-06-23,29.5086,-11301461.0363,285.9862,29.3980,28.1238
2016-06-22,29.6236,-14168372.4831,281.1328,29.4346,28.7019
2016-06-21,29.7599,-11110107.7066,275.9076,29.4712,29.2875
2016-06-20,29.9149,-11543100.5293,265.8046,29.5095,29.8487
2016-06-17,30.0712,-10630496.2155,253.0013,29.5447,30.3468
2016-06-16,30.2160,-11064848.2095,230.2459,29.5809,30.7482
2016-06-15,30.3243,-11317931.8666,199.5241,29.6146,31.0154
2016-06-14,30.3859,-6424768.7770,178.7181,29.6462,31.1312
2016-06-13,30.3915,5283184.4535,165.0755,29.6501,31.1083
2016-06-10,30.3887,8340450.8669,145.7825,29.6399,31.0180
2016-06-09,30.3814,10095794.9865,127.4168,29.6252,30.8980
2016-06-08,30.3584,10551120.7477,109.7167,29.6041,30.7657
2016-06-07,30.3272,8457216.7371,92.0186,29.5840,30.6370
2016-06-06,30.2696,6666301.1029,68.6931,29.5686,30.5064
2016-06-03,30.1912,5624257.6710,40.9051,29.5569,30.3630
2016-06-02,30.1128,5316749.5089,-7.3118,29.5431,30.2057
2016-06-01,30.0535,3383562.9994,301.2536,29.5258,30.0507
2016-05-31,30.0357,2556322.6116,297.1925,29.5094,29.9171
2016-05-27,30.0132,2042562.2196,305.6784,29.4905,29.8162
2016-05-26,29.9680,332800.7681,300.5646,29.4753,29.7617
2016-05-25,29.9197,-1206418.4776,295.5997,29.4635,29.7512
2016-05-24,29.8657,-1647287.6235,273.5987,29.4538,29.7817
2016-05-23,29.8571,-2807429.0646,269.5472,29.4482,29.8500
2016-05-20,29.8387,-3541925.9679,265.6323,29.4449,29.9483
2016-05-19,29.8107,-3803509.7385,261.0156,29.4389,30.0738
2016-05-18,29.7878,-5717158.0877,249.6706,29.4346,30.2268
2016-05-17,29.8024,-8769346.6831,238.4467,29.4363,30.3895
2016-05-16,29.8518,-8725022.2289,232.8989,29.4428,30.5338
2016-05-13,29.8966,-6119874.4899,233.0258,29.4469,30.6403
2016-05-12,29.8975,-3482444.5069,228.5419,29.4485,30.7104
2016-05-11,29.8830,-245372.6580,224.7094,29.4408,30.7513
2016-05-10,29.8703,2048787.4094,220.3709,29.4315,30.7789
2016-05-09,29.8625,1805461.3445,215.3225,29.4251,30.7863
2016-05-06,29.8399,2475900.8094,210.0607,29.4179,30.7574
2016-05-05,29.7977,2106767.0395,204.7757,29.4155,30.6831
2016-05-04,29.7116,4916677.6683,201.0629,29.4068,30.5533
2016-05-03,29.5838,6721189.4041,194.5741,29.3931,30.3858
2016-05-02,29.4727,5864303.2199,191.5401,29.3770,30.1950
2016-04-29,29.3392,5182447.4482,182.4067,29.3628,29.9882
2016-04-28,29.2077,6034562.0118,172.1119,29.3485,29.7659
2016-04-27,29.0782,6003953.2844,160.8153,29.3356,29.5357
2016-04-26,28.9454,5919333.5025,145.2298,29.3174,29.3075
2016-04-25,28.8207,4941899.2318,132.4150,29.3045,29.1006
2016-04-22,28.7137,6647025.9068,121.8086,29.2928,28.9126
2016-04-21,28.6201,8033508.9109,109.3008,29.2853,28.7516
2016-04-20,28.5413,8289450.1342,94.3737,29.2722,28.6231
2016-04-19,28.4831,5056160.6405,20.7461,29.2655,28.5448
2016-04-18,28.4376,3147843.3944,287.8417,29.2662,28.5032
2016-04-15,28.3938,2951287.1495,270.7074,29.2708,28.4848
2016-04-14,28.3649,3367619.4806,266.8722,29.2706,28.4878
2016-04-13,28.3500,2426521.2263,259.2672,29.2753,28.5203
2016-04-12,28.3423,353688.4818,241.1277,29.2844,28.5643
2016-04-11,28.3495,459668.0250,210.9666,29.2976,28.6019
2016-04-08,28.3434,3067712.4610,195.3997,29.3101,28.6187
2016-04-07,28.3323,4522218.0325,182.4423,29.3244,28.6125
2016-04-06,28.3088,6033793.5706,171.3247,29.3335,28.5820
2016-04-05,28.2822,5788588.9811,149.0332,29.3420,28.5412
2016-04-04,28.2409,6624159.1537,140.9396,29.3494,28.4963
2016-04-01,28.1782,7497481.6782,172.0430,29.3505,28.4573
2016-03-31,28.1473,6281354.8717,187.3217,29.3579,28.4359
2016-03-30,28.1156,6058555.2149,203.2962,29.3678,28.4169
2016-03-29,28.0720,7080046.6599,217.4295,29.3762,28.3960
2016-03-28,28.0174,6203278.1015,224.7116,29.3874,28.3764
2016-03-24,27.9523,6813837.7600,227.7417,29.3963,28.3540
2016-03-23,27.8744,6935216.8746,232.4161,29.4084,28.3349
2016-03-22,27.8012,7589674.3238,233.5964,29.4168,28.3165
2016-03-21,27.7538,6209748.9426,232.2631,29.4261,28.3084
2016-03-18,27.7278,4917512.9123,230.3698,29.4365,28.3065
2016-03-17,27.6863,3812457.5731,227.5471,29.4483,28.3031
2016-03-16,27.6244,2479446.0134,223.8233,29.4667,28.2855
2016-03-15,27.5109,3617851.5782,222.5972,29.4851,28.2350
2016-03-14,27.3801,5683183.9803,221.7673,29.4985,28.1547
2016-03-11,27.2695,5806722.5886,220.2159,29.5072,28.0572
2016-03-10,27.1245,4427625.2779,216.5529,29.5211,27.9465
2016-03-09,27.0003,5923797.2178,210.4605,29.5384,27.8054
2016-03-08,26.8724,8777218.7858,208.6664,29.5556,27.6265
2016-03-07,26.6976,11294040.3157,203.1124,29.5684,27.4174
2016-03-04,26.5623,10875230.9262,194.3318,29.5798,27.1957
2016-03-03,26.4784,11670316.5171,181.7071,29.5883,26.9723
2016-03-02,26.4393,9795905.8109,165.6207,29.6017,26.7545
2016-03-01,26.4478,7644577.9958,146.1072,29.6209,26.5307
2016-02-29,26.4836,6183115.8223,125.5706,29.6448,26.2918
2016-02-26,26.5034,9953098.5489,106.0647,29.6630,26.0429
2016-02-25,26.5276,9419784.8606,87.3843,29.6802,25.8130
2016-02-24,26.5699,8097893.5968,69.8415,29.7002,25.6193
2016-02-23,26.6276,5870131.1952,60.0073,29.7257,25.4722
2016-02-22,26.7423,5225392.1447,37.9224,29.7461,25.3856
2016-02-19,26.8342,4974660.8099,23.5068,29.7643,25.3922
2016-02-18,26.9417,3750887.1023,9.9020,29.7973,25.5024
2016-02-17,27.0408,2592312.4947,-5.0986,29.8333,25.6917
2016-02-16,27.1831,3607843.5039,-23.9368,29.8681,25.9590
2016-02-12,27.3784,-119029.6618,-35.1741,29.9097,26.2986
2016-02-11,27.6519,-3081846.1839,-42.9651,29.9603,26.6756
2016-02-10,27.9449,-4598969.7029,-43.2432,30.0176,27.0476
2016-02-09,28.2308,-3830574.1956,-25.4586,30.0663,27.3831
2016-02-08,28.5178,-6123970.9472,16.1177,30.1248,27.6729
2016-02-05,28.7614,-3928173.4807,32.9755,30.1768,27.8810
2016-02-04,28.9083,-576906.7004,35.1261,30.2155,28.0166
2016-02-03,29.0270,-621914.8392,29.3282,30.2555,28.1000
2016-02-02,29.0813,820009.4801,28.6813,30.2880,28.1305
2016-02-01,29.1244,4644056.1369,26.4523,30.3087,28.1345
2016-01-29,29.1673,1874123.6008,23.3114,30.3277,28.1429
2016-01-28,29.2130,-2074670.8530,14.8107,30.3499,28.1618
2016-01-27,29.2259,429964.0790,10.1010,30.3686,28.1925
2016-01-26,29.2344,2901178.9818,9.2655,30.3870,28.2509
2016-01-25,29.2749,4483181.0364,3.0392,30.4059,28.3469
2016-01-22,29.3328,8133506.8063,-3.9251,30.4193,28.4902
2016-01-21,29.4336,9656113.2222,-13.5736,30.4306,28.6933
2016-01-20,29.5673,9901240.6098,-21.0413,30.4590,28.9407
2016-01-19,29.7098,7632331.3784,-27.7643,30.4905,29.1786
2016-01-15,29.8596,3915155.7971,-35.5530,30.5177,29.3888
2016-01-14,30.0028,-1634336.1997,-42.2872,30.5488,29.5666
2016-01-13,30.1349,-6093655.0714,-39.0889,30.5786,29.6980
2016-01-12,30.2607,-1636859.3420,-2.0695,30.5862,29.7960
2016-01-11,30.3972,-1716583.5808,41.7636,30.6017,29.9004
2016-01-08,30.4952,-493030.5123,49.4790,30.6178,29.9862
2016-01-07,30.5773,3489443.9486,47.4419,30.6305,30.0484
2016-01-06,30.5888,5662966.9621,48.7232,30.6423,30.0920
2016-01-05,30.5948,3528640.1309,53.3521,30.6505,30.1190
2016-01-04,30.6415,1283033.3831,52.5555,30.6586,30.1368
2015-12-31,30.6917,-1076051.9237,49.8368,30.6654,30.1480
2015-12-30,30.7340,-1297599.7030,41.5845,30.6700,30.1613
2015-12-29,30.7343,-1048274.1309,36.5696,30.6699,30.1902
2015-12-28,30.7413,-2259823.5921,32.2048,30.6720,30.2488
2015-12-24,30.7546,-2331189.2414,30.1716,30.6746,30.3355
2015-12-23,30.8449,-3887955.9544,23.4480,30.6765,30.4518
2015-12-22,30.9204,-6355967.9355,20.3675,30.6793,30.5970
2015-12-21,31.0250,-7829336.1046,18.6008,30.6863,30.7615
2015-12-18,31.1498,-6892157.3989,10.3539,30.6967,30.9277
2015-12-17,31.2417,-4398740.3563,-2.6405,30.7049,31.0847
2015-12-16,31.3188,-3292364.7030,-10.3239,30.7056,31.2362
2015-12-15,31.4183,-5914677.0964,-24.8035,30.7087,31.3881
2015-12-14,31.5139,-7009512.8175,-39.8246,30.7158,31.5206
2015-12-11,31.5941,-5338715.4430,301.3773,30.7216,31.6145
2015-12-10,31.6662,-3801357.1198,275.4927,30.7221,31.6672
2015-12-09,31.7079,-4705678.4035,249.2361,30.7222,31.6848
2015-12-08,31.7126,-4402849.8961,217.9291,30.7159,31.6674
2015-12-07,31.6729,-10078312.1391,205.3110,30.7112,31.6263
2015-12-04,31.5739,-11567464.4905,213.5200,30.6987,31.5614
2015-12-03,31.4627,-17542177.0818,217.0378,30.6933,31.4884
2015-12-02,31.3361,-15973799.5089,216.9835,30.6812,31.4016
2015-12-01,31.2570,-19092898.0530,207.5323,30.6618,31.3277
2015-11-30,31.2588,-27987463.6339,183.8090,30.6471,31.2849
2015-11-27,31.3389,-35364489.1276,146.1661,30.6377,31.2625
2015-11-25,31.4770,-36593207.5043,92.1629,30.6270,31.2521
2015-11-24,31.5348,-36771714.3295,66.9627,30.6186,31.2591
2015-11-23,31.5366,-30202898.1229,39.7022,30.6126,31.2826
2015-11-20,31.5010,-29808895.8948,9.1234,30.5998,31.3275
2015-11-19,31.4460,-33022219.0899,-37.3884,30.5868,31.4125
2015-11-18,31.4584,-40647996.9042,296.9503,30.5765,31.5323
2015-11-17,31.5185,-44588894.7082,270.6054,30.5731,31.6651
2015-11-16,31.6135,-29155690.6420,228.6704,30.5749,31.7772
2015-11-13,31.7069,-32271455.1089,186.0232,30.5784,31.8418
2015-11-12,31.7726,-21346720.2073,147.0110,30.5767,31.8474
2015-11-11,31.7957,-10790864.2091,110.4028,30.5739,31.8008
2015-11-10,31.7260,-6538915.9987,80.7056,30.5685,31.7084
2015-11-09,31.6667,4177358.3618,41.1402,30.5561,31.5945
2015-11-06,31.6095,8053967.7183,-14.3853,30.5221,31.5045
2015-11-05,31.6341,6344030.8518,-38.5424,30.4972,31.4918
2015-11-04,31.7054,4430077.7540,3.9405,30.4820,31.5339
2015-11-03,31.7807,5531874.9772,45.0946,30.4642,31.6080
2015-11-02,31.8472,1081189.9869,49.1814,30.4578,31.7054
2015-10-30,31.8497,351555.0586,17.0380,30.4568,31.7885
2015-10-29,31.8198,2133930.9358,0.1570,30.4519,31.8412
2015-10-28,31.7534,3256497.8525,-41.4613,30.4445,31.8706
2015-10-27,31.6638,3327889.6388,270.2060,30.4317,31.8832
2015-10-26,31.5886,1603584.7523,248.4575,30.4236,31.8887
2015-10-23,31.5147,2538033.8718,232.4053,30.4094,31.8830
2015-10-22,31.4662,4748199.0122,217.1996,30.3930,31.8874
2015-10-21,31.4502,5598177.6298,199.0130,30.3697,31.9147
2015-10-20,31.4711,4917156.1899,175.2234,30.3492,31.9750
2015-10-19,31.5059,2159735.7390,157.6160,30.3349,32.0448
2015-10-16,31.5371,-2627940.0800,141.0642,30.3378,32.0847
2015-10-15,31.5396,-751550.6045,127.5190,30.3274,32.0523
2015-10-14,31.5312,-649496.4752,127.2053,30.3187,31.9695
2015-10-13,31.5139,-255698.2757,120.9518,30.3041,31.8325
2015-10-12,31.4938,184616.1229,114.2561,30.2851,31.6571
2015-10-09,31.4838,314959.0700,106.6012,30.2650,31.4571
2015-10-08,31.4882,496686.3092,85.6137,30.2444,31.2418
2015-10-07,31.5074,634396.0696,70.1624,30.2254,31.0244
2015-10-06,31.5553,1086683.3807,50.8516,30.1974,30.8249
2015-10-05,31.6359,1301315.7104,36.5317,30.1603,30.6832
2015-10-02,31.7887,957444.7797,28.6228,30.1429,30.6142
2015-10-01,31.9713,798912.4303,24.7087,30.1320,30.5734
2015-09-30,32.1926,924364.1295,24.3226,30.1201,30.5529
2015-09-29,32.3995,1112731.5877,21.9936,30.1074,30.5609
2015-09-28,32.5744,1198840.4550,15.1438,30.0977,30.6021
2015-09-25,32.6604,1129463.8950,10.6533,30.0886,30.6731
2015-09-24,32.7144,1234460.6652,6.3967,30.0788,30.7749
2015-09-23,32.7331,1216794.8447,5.6275,30.0725,30.9062
2015-09-22,32.7198,916895.5674,8.6626,30.0666,31.0568
2015-09-21,32.6862,702407.4058,15.5966,30.0600,31.2218
2015-09-18,32.6824,263830.8129,19.9395,30.0549,31.3960
2015-09-17,32.6943,-67423.1844,23.7483,30.0503,31.5688
2015-09-16,32.7423,-38483.4547,27.5880,30.0427,31.7343
2015-09-15,32.8396,-533198.9237,29.8184,30.0353,31.8937
2015-09-14,32.9411,-818878.2770,31.0208,30.0246,32.0439
2015-09-11,33.0578,-692897.6186,30.8218,30.0123,32.1924
2015-09-10,33.1981,-556992.7263,26.2400,29.9924,32.3474
2015-09-09,33.3344,-774653.7417,24.1462,29.9754,32.5249
2015-09-08,33.5042,49818.1862,17.7213,29.9489,32.7227
2015-09-04,33.6674,-337493.7815,10.1964,29.9281,32.9532
2015-09-03,33.8185,-224433.7510,1.0818,29.9099,33.1946
2015-09-02,33.9509,-288822.3050,-9.8884,29.8879,33.4350
2015-09-01,34.0733,-119829.3282,-21.9034,29.8665,33.6743
2015-08-31,34.1911,317972.9659,-38.8844,29.8395,33.9054
2015-08-28,34.2936,78241.0438,307.9116,29.8100,34.1299
2015-08-27,34.3870,-261857.9206,288.9992,29.7867,34.3369
2015-08-26,34.4583,-28088.9897,269.4498,29.7544,34.5060
2015-08-25,34.5214,277541.7479,238.8896,29.7170,34.6491
2015-08-24,34.5902,466468.9348,188.7648,29.6765,34.7627
2015-08-21,34.6643,22766.4291,152.3160,29.6508,34.8317
2015-08-20,34.7055,573638.4013,124.3446,29.6079,34.8274
2015-08-19,34.7492,772894.2000,102.4426,29.5573,34.7944
2015-08-18,34.7838,839632.0707,84.3163,29.5035,34.7553
2015-08-17,34.7998,952490.2760,66.9900,29.4453,34.7241
2015-08-14,34.8054,869632.2928,49.8082,29.3906,34.7138
2015-08-13,34.7640,839365.4298,10.5814,29.3288,34.7246
2015-08-12,34.7077,573053.3264,-16.3888,29.2720,34.7704
2015-08-11,34.6362,40944.2973,-42.1407,29.2174,34.8365
2015-08-10,34.5435,-390929.4315,281.0513,29.1632,34.9123
2015-08-07,34.4671,-652582.3115,264.6167,29.1131,34.9883
2015-08-06,34.3857,-780477.4953,250.7698,29.0631,35.0497
2015-08-05,34.3041,-715188.9817,238.6613,29.0054,35.0960
2015-08-04,34.2474,-763529.3545,226.6614,28.9489,35.1367
2015-08-03,34.2120,-590552.8979,220.8652,28.8941,35.1583
2015-07-31,34.1614,-571546.6755,208.3167,28.8382,35.1475
2015-07-30,34.1279,-374777.6191,201.7181,28.7799,35.0975
2015-07-29,34.0832,-507293.3762,189.2337,28.7213,35.0024
2015-07-28,34.0328,-478859.5022,181.4723,28.6653,34.8517
2015-07-27,33.9356,-209650.6743,174.2862,28.6038,34.6374
2015-07-24,33.7913,-122502.2188,164.0594,28.5430,34.3735
2015-07-23,33.6093,159883.9187,156.2865,28.4725,34.0734
2015-07-22,33.4278,230218.4202,149.4013,28.3980,33.7751
2015-07-21,33.2682,203035.5528,141.9626,28.3255,33.5023
2015-07-20,33.1214,400391.7651,131.4379,28.2478,33.2697
2015-07-17,33.0207,221877.9707,118.5916,28.1765,33.0976
2015-07-16,32.9521,215348.4112,103.8024,28.1127,32.9761
2015-07-15,32.9070,301103.3362,81.6331,28.0506,32.8948
2015-07-14,32.8870,101043.4798,51.9433,27.9915,32.8527
2015-07-13,32.8781,-159836.7362,11.8622,27.9371,32.8426
2015-07-10,32.8693,-350354.2444,-16.3180,27.8826,32.8534
2015-07-09,32.8768,-357376.9045,-11.5242,27.8319,32.8795
2015-07-08,32.8899,-260849.5090,-6.8352,27.7841,32.9059
2015-07-07,32.8994,-127430.9658,-11.5166,27.7371,32.9218
2015-07-06,32.8941,-134365.1742,-19.8493,27.6879,32.9259
2015-07-02,32.8747,-42414.2399,306.2095,27.6351,32.9268
2015-07-01,32.8430,-151868.4902,281.8289,27.5772,32.9358
2015-06-30,32.8176,-429987.9364,257.8613,27.5214,32.9604
2015-06-29,32.8155,-588551.9301,243.7152,27.4705,32.9874
2015-06-26,32.8115,-379352.2354,233.1443,27.4205,33.0010
2015-06-25,32.8066,-181430.3225,231.0528,27.3654,33.0001
2015-06-24,32.7956,-309753.1304,229.3007,27.3099,32.9950
2015-06-23,32.7762,-133358.1306,227.6234,27.2525,32.9860
2015-06-22,32.7514,3673.6667,224.5110,27.1946,32.9761
2015-06-19,32.7218,44298.9031,214.5645,27.1356,32.9645
2015-06-18,32.7057,-15001.8033,201.6144,27.0773,32.9495
2015-06-17,32.6912,89438.1486,193.5755,27.0195,32.9250
2015-06-16,32.6631,130957.8300,181.6815,26.9631,32.8865
2015-06-15,32.6162,252611.8587,175.9232,26.9021,32.8328
2015-06-12,32.5605,77916.8320,175.3163,26.8414,32.7754
2015-06-11,32.5106,208648.1522,175.9280,26.7774,32.7180
2015-06-10,32.4858,467760.5511,167.1235,26.7116,32.6701
2015-06-09,32.4998,250407.8667,129.3011,26.6484,32.6345
2015-06-08,32.5053,144659.7020,108.4202,26.5881,32.6038
2015-06-05,32.4937,243057.5878,88.0565,26.5255,32.5743
2015-06-04,32.4880,280733.4753,66.9498,26.4616,32.5548
2015-06-03,32.4668,441010.8373,39.7364,26.3951,32.5508
2015-06-02,32.4403,330696.1454,6.5990,26.3315,32.5647
2015-06-01,32.4137,283272.0054,-25.9845,26.2715,32.5854
2015-05-29,32.3683,296584.4658,302.2453,26.2100,32.6034
2015-05-28,32.3039,419762.0340,278.8043,26.1458,32.6205
2015-05-27,32.2295,435650.2076,261.9226,26.0833,32.6373
2015-05-26,32.1389,478926.4015,248.6881,26.0223,32.6447
2015-05-22,32.0437,596744.4440,236.7977,25.9572,32.6376
2015-05-21,31.9627,661267.5974,224.1556,25.8921,32.6201
2015-05-20,31.8904,740830.6844,210.2584,25.8244,32.5865
2015-05-19,31.8262,573271.9986,194.3469,25.7601,32.5304
2015-05-18,31.7504,389499.7661,172.1725,25.6987,32.4336
2015-05-15,31.6285,431724.1387,158.4966,25.6369,32.2865
2015-05-14,31.4763,958028.7332,151.9414,25.5639,32.0995
2015-05-13,31.3169,1100280.4211,151.9103,25.4890,31.9045
2015-05-12,31.1602,1262814.5297,163.4733,25.4119,31.7123
2015-05-11,31.0203,936509.5598,179.9778,25.3419,31.5313
2015-05-08,30.9025,971404.8799,187.5488,25.2629,31.3598
2015-05-07,30.8121,584529.0001,189.3481,25.1874,31.2234
2015-05-06,30.7483,211528.2998,189.1579,25.1180,31.1160
2015-05-05,30.6983,84733.0024,186.2543,25.0468,31.0300
2015-05-04,30.6724,33115.9686,187.3456,24.9776,30.9710
2015-05-01,30.6679,-313732.2639,174.4243,24.9112,30.9322
2015-04-30,30.6820,-652579.2098,142.4988,24.8457,30.9019
2015-04-29,30.7007,-964251.4408,135.5766,24.7865,30.8675
2015-04-28,30.7295,-1184942.0506,117.0552,24.7281,30.8085
2015-04-27,30.7401,-1224737.8466,110.8141,24.6666,30.7210
2015-04-24,30.7487,-1119572.8614,95.2691,24.6044,30.6120
2015-04-23,30.7238,-970464.1878,89.0101,24.5405,30.4882
2015-04-22,30.6893,-505852.0073,82.6633,24.4700,30.3644
2015-04-21,30.6576,50938.2504,76.4633,24.3959,30.2643
2015-04-20,30.6506,-124268.6829,70.6032,24.3294,30.1966
2015-04-17,30.6565,-37593.1461,64.2206,24.2611,30.1505
2015-04-16,30.6882,-16792.3765,57.9807,24.1930,30.1351
2015-04-15,30.7484,-206774.1295,47.1025,24.1273,30.1520
2015-04-14,30.7913,-184728.3921,42.0515,24.0628,30.1987
2015-04-13,30.8612,-25467.0612,30.8370,23.9960,30.2764
2015-04-10,30.9400,-219735.4174,26.2603,23.9302,30.3898
2015-04-09,31.0588,-473013.5902,16.6454,23.8665,30.5324
2015-04-08,31.1712,-519247.0149,6.1523,23.8044,30.6930
2015-04-07,31.2802,-473339.1165,-4.7170,23.7438,30.8615
2015-04-06,31.3676,-171445.8470,-17.7717,23.6793,31.0314
2015-04-02,31.4442,-50227.1566,-32.5560,23.6104,31.2070
2015-04-01,31.5241,-356384.1963,311.6490,23.5418,31.3873
2015-03-31,31.6204,-649649.2426,290.2419,23.4753,31.5565
2015-03-30,31.7147,-972346.4300,267.9262,23.4069,31.6958
2015-03-27,31.7959,-1048136.8439,228.7079,23.3387,31.7960
2015-03-26,31.8539,-859400.6680,173.6637,23.2640,31.8501
2015-03-25,31.8950,-714404.6960,134.1632,23.1857,31.8681
2015-03-24,31.9128,-389559.7410,109.8383,23.1029,31.8572
2015-03-23,31.9283,-181116.4773,89.3342,23.0153,31.8315
2015-03-20,31.9325,207867.3845,70.2165,22.9226,31.8080
2015-03-19,31.9349,617313.8005,58.3568,22.8259,31.8027
2015-03-18,31.9606,453971.2486,42.5576,22.7340,31.8231
2015-03-17,31.9833,410058.3440,26.5539,22.6383,31.8601
2015-03-16,32.0102,211591.6121,10.6027,22.5470,31.9195
2015-03-13,32.0327,5132.3948,-9.0336,22.4515,31.9921
2015-03-12,32.0854,-244763.4832,-23.0740,22.3564,32.0841
2015-03-11,32.1763,-353356.4306,-4.9001,22.2612,32.1882
2015-03-10,32.2874,-370123.3658,28.6475,22.1704,32.2949
2015-03-09,32.3734,-126127.2919,40.6660,22.0731,32.3904
2015-03-06,32.4234,-186030.8562,36.4445,21.9795,32.4807
2015-03-05,32.4209,79133.9238,18.8369,21.8789,32.5557
2015-03-04,32.3889,183204.1506,-30.1284,21.7769,32.6264
2015-03-03,32.3414,216116.4156,302.2827,21.6731,32.6903
2015-03-02,32.2871,114756.6182,279.7993,21.5672,32.7444
2015-02-27,32.2314,11094.3040,261.5073,21.4651,32.7844
2015-02-26,32.1575,247099.2131,246.7925,21.3550,32.8006
2015-02-25,32.0921,366639.1193,232.6569,21.2421,32.8073
2015-02-24,32.0341,442597.5523,218.2159,21.1301,32.8024
2015-02-23,31.9826,412498.9483,204.4843,21.0156,32.7765
2015-02-20,31.9218,107783.5853,193.5867,20.8990,32.7244
2015-02-19,31.8532,-251641.8082,185.2903,20.7873,32.6346
2015-02-18,31.7673,12774.4400,175.2757,20.6746,32.4852
2015-02-17,31.6103,492201.2745,175.5301,20.5623,32.2742
2015-02-13,31.4205,1317809.4509,186.4208,20.4387,32.0123
2015-02-12,31.2368,1895106.9256,194.0234,20.3078,31.7397
2015-02-11,31.0059,2288674.5667,212.0569,20.1722,31.4856
2015-02-10,30.8087,1601970.7081,221.1647,20.0401,31.2657
2015-02-09,30.5853,880780.5854,221.2657,19.9130,31.0721
2015-02-06,30.3929,656670.9038,214.8161,19.7897,30.8926
2015-02-05,30.2504,810516.4433,203.0819,19.6656,30.7182
2015-02-04,30.1478,563393.4360,187.8900,19.5484,30.5444
2015-02-03,30.0605,554864.9400,171.3502,19.4316,30.3548
2015-02-02,29.9716,758116.5631,154.3900,19.3118,30.1518
2015-01-30,29.8796,821464.6689,136.3713,19.1953,29.9454
2015-01-29,29.7584,1313144.8676,118.2045,19.0750,29.7400
2015-01-28,29.6335,1560827.5774,95.8128,18.9523,29.5608
2015-01-27,29.5202,1753545.8667,58.9653,18.8229,29.4321
2015-01-26,29.4676,1394565.6741,22.5061,18.6980,29.3779
2015-01-23,29.4688,654241.0508,-0.8372,18.5757,29.3912
2015-01-22,29.5230,274854.8371,-6.0374,18.4603,29.4602
2015-01-21,29.6114,59978.8095,4.7443,18.3517,29.5586
2015-01-20,29.7003,-167839.6965,19.2373,18.2431,29.6620
2015-01-16,29.7799,-477496.0771,26.8767,18.1345,29.7585
2015-01-15,29.8474,-625105.7358,26.3013,18.0315,29.8348
2015-01-14,29.8726,-563315.7112,10.6975,17.9187,29.8775
2015-01-13,29.8569,-370285.0895,-16.0012,17.8029,29.9064
2015-01-12,29.8131,-286812.8686,312.5372,17.6820,29.9279
2015-01-09,29.7445,-55338.8105,284.2015,17.5600,29.9503
2015-01-08,29.6660,-65858.2662,251.2209,17.4336,29.9721
2015-01-07,29.6539,-178243.0374,229.0529,17.3114,29.9915
2015-01-06,29.6439,-19414.2183,195.7665,17.1881,29.9891
2015-01-05,29.6265,111153.8223,174.5155,17.0648,29.9576
2015-01-02,29.5851,91570.8657,153.4614,16.9404,29.8910
2014-12-31,29.5182,287120.9403,142.0732,16.8106,29.7924
2014-12-30,29.4447,510871.9086,135.0378,16.6762,29.6788
2014-12-29,29.3605,713915.8565,133.7577,16.5367,29.5672
2014-12-26,29.2818,793957.6425,168.7621,16.3962,29.4738
2014-12-24,29.2270,819470.0308,204.4486,16.2570,29.4032
2014-12-23,29.1829,887764.8773,220.4886,16.1171,29.3557
2014-12-22,29.1510,881873.8627,220.2687,15.9765,29.3346
2014-12-19,29.1287,657982.1409,206.5317,15.8388,29.3394
2014-12-18,29.1152,254623.3884,195.7610,15.6975,29.3616
2014-12-17,29.1180,-147233.4607,172.0353,15.5593,29.3989
2014-12-16,29.1218,-525369.4621,150.3159,15.4284,29.4294
2014-12-15,29.1048,-586694.9234,136.3509,15.2954,29.4303
2014-12-12,29.0624,-366931.3752,165.2499,15.1554,29.4071
2014-12-11,29.0036,145028.2926,228.6485,15.0123,29.3764
2014-12-10,28.9416,417744.0843,247.0001,14.8642,29.3484
2014-12-09,28.8899,423694.5750,252.1058,14.7159,29.3336
2014-12-08,28.8191,196311.3968,248.6567,14.5662,29.3314
2014-12-05,28.7552,-2182.5048,248.4026,14.4175,29.3408
2014-12-04,28.6625,-237399.3229,241.4378,14.2674,29.3559
2014-12-03,28.5828,-264371.7322,232.6988,14.1184,29.3733
2014-12-02,28.5002,-196582.3013,223.4845,13.9669,29.3850
2014-12-01,28.4075,-81848.7736,213.2584,13.8157,29.3888
2014-11-28,28.2959,29513.2575,202.7568,13.6623,29.3759
2014-11-26,28.0880,96651.1097,198.9141,13.5099,29.3412
2014-11-25,27.8372,522737.8352,199.5180,13.3551,29.2754
2014-11-24,27.5667,780070.7235,198.5756,13.1978,29.1793
2014-11-21,27.2337,1128342.6232,199.3521,13.0355,29.0566
2014-11-20,26.9642,1205613.7950,196.1061,12.8712,28.9148
2014-11-19,26.7253,986435.0725,190.8182,12.7087,28.7521
2014-11-18,26.5075,737229.6237,184.6257,12.5442,28.5630
2014-11-17,26.3230,1058938.9212,177.4717,12.3759,28.3532
2014-11-14,26.1587,1249576.4257,171.0469,12.2075,28.1321
2014-11-13,26.0134,1774675.5643,167.5836,12.0386,27.9021
2014-11-12,25.8641,2014560.2142,164.5921,11.8672,27.6696
2014-11-11,25.7260,1933259.2487,161.3132,11.6942,27.4447
2014-11-10,25.6061,1706304.4535,157.1401,11.5214,27.2319
2014-11-07,25.5057,1365905.6311,150.4101,11.3526,27.0254
2014-11-06,25.4421,1113288.0475,146.7170,11.1873,26.8099
2014-11-05,25.3823,1115669.6249,142.9446,11.0224,26.5730
2014-11-04,25.3249,1058939.9821,139.9815,10.8591,26.3110
2014-11-03,25.2430,1107458.1096,135.2596,10.6930,26.0236
2014-10-31,25.1497,1187209.8933,130.7319,10.5275,25.7237
2014-10-30,25.0426,1177187.8243,126.6220,10.3606,25.4261
2014-10-29,24.9258,1114767.1475,123.9249,10.1723,25.1613
2014-10-28,,1117859.9253,,10.0043,24.9756
2014-10-27,,1223263.4393,,9.8353,24.8295
2014-10-24,,1201130.2829,,9.6712,24.7268
2014-10-23,,1130132.3975,,9.5088,24.6583
2014-10-22,,876990.1849,,9.3476,24.6202
2014-10-21,,496761.6786,,9.1870,24.6080
2014-10-20,,98247.5937,,9.0296,24.6147
2014-10-17,,-8406.3699,,8.8708,24.6294
2014-10-16,,-2600.1048,,8.7107,24.6497
2014-10-15,,-310202.4926,,8.5542,
2014-10-14,,-401123.1505,,8.3907,
2014-10-13,,-483614.9426,,8.2267,
2014-10-10,,-207527.0404,,8.0647,
2014-10-09,,395709.2401,,7.8987,
2014-10-08,,819018.7231,,7.7258,
2014-10-07,,450575.1504,,7.5532,
2014-10-06,,285507.1615,,7.3776,
2014-10-03,,92902.1001,,7.2010,
2014-10-02,,-62719.7985,,7.0234,
2014-10-01,,-111221.5037,,6.8484,
2014-09-30,,538928.8173,,6.6707,
2014-09-29,,1259305.2225,,6.4869,
2014-09-26,,1011434.5311,,6.3042,
2014-09-25,,935979.9338,,6.1193,
2014-09-24,,1390857.6962,,5.9288,
2014-09-23,,1257371.2218,,5.7389,
2014-09-22,,1032550.8267,,5.5478,
2014-09-19,,647189.2326,,5.3485,
2014-09-18,,-842023.1729,,5.1515,
2014-09-17,,-1044593.3620,,4.9553,
2014-09-16,,-1454149.7440,,4.7584,
2014-09-15,,-2021321.6302,,,
2014-09-12,,-2027497.6380,,,
2014-09-11,,-1592039.5152,,,
2014-09-10,,-701414.1040,,,
2014-09-09,,215216.6734,,,
2014-09-08,,922188.4728,,,
2014-09-05,,1759331.4823,,,
2014-09-04,,2081049.2286,,,
2014-09-03,,2193109.4465,,,
2014-09-02,,2486690.6575,,,
2014-08-29,,2552477.8981,,,
2014-08-28,,2759519.4563,,,
2014-08-27,,2948311.9573,,,
2014-08-26,,3085973.7785,,,
2014-08-25,,3466725.4510,,,
2014-08-22,,3904443.3279,,,
2014-08-21,,4035844.9200,,,
2014-08-20,,3859463.0719,,,
2014-08-19,,3609915.6494,,,
2014-08-18,,3296295.0807,,,
2014-08-15,,3925423.4026,,,
2014-08-14,,5426076.3222,,,
2014-08-13,,6373355.3876,,,
